timestep,px,py,theta,px_ref,py_ref,theta_ref,error_px,error_py,error_theta,error_norm
0,0.0,0.0,0.7853981633974483,0.0,0.0,0.7853981633974483,0.0,0.0,0.0,0.0
1,0.0174368270647085,0.0174368270647085,0.7850332355346833,0.01999966666833333,0.01999866669333308,0.7853231571470295,-0.002562839603624828,-0.0025618396286245793,-0.00028992161234620006,0.0036352749081747047
2,0.03488001615225833,0.034867289784472545,0.7846683076719183,0.03999733338666616,0.03998933418663416,0.7850980633706443,-0.00511731723440783,-0.005122044402161616,-0.0004297556987259421,0.007253065868711656
3,0.05232956493969912,0.052291385838036566,0.7843033798091533,0.05999100040499132,0.0599640064794446,0.7847226568420766,-0.007661435465292202,-0.007672620641408036,-0.0004192770329233264,0.010850921349182049
4,0.06978547110323356,0.06970911290499285,0.7839384519463883,0.07997866837326832,0.07991469396917268,0.7841965616812204,-0.01019319727003476,-0.010205581064179833,-0.00025810973483209043,0.014426426310025818
5,0.08724773231821774,0.08712046866578188,0.7835735240836234,0.09995833854135666,0.09983341664682815,0.7835192505983565,-0.012710606223138923,-0.012712947981046274,5.427348526687581e-05,0.017977249582171614
6,0.1073458859548737,0.10714541204099104,0.7825144332638643,0.11992801295888919,0.11971220728891936,0.7826900438339384,-0.012582127004015495,-0.012566795247928322,-0.00017561057007409175,0.01778384384268068
7,0.127465236549479,0.12714905841944704,0.7814553424441052,0.13988569467506554,0.1395431146442365,0.7817081077917023,-0.012420458125586537,-0.012394056224789451,-0.0002527653475971059,0.01754834180410322
8,0.14760576153469607,0.14713138536359463,0.7803962516243461,0.1598293879383454,0.15931820661424598,0.7805724533623122,-0.012223626403649324,-0.012186821250651347,-0.0001762017379660641,0.017261712015434114
9,0.1677674383194366,0.16709237045979203,0.779337160804587,0.17975709839602208,0.17902957342582415,0.7792819339341677,-0.011989660076585473,-0.011937202966032123,5.5226870419367025e-05,0.016918977906821973
10,0.1879502442888869,0.187031991318336,0.778278069984828,0.1996668332936563,0.19866933079506124,0.7778352430874435,-0.011716589004769407,-0.01163733947672524,0.0004428268973845073,0.016519752530358263
11,0.2077123719781534,0.20651468747385462,0.7764152595945716,0.21955660167434962,0.21822962308086932,0.7762309119668949,-0.011844229696196223,-0.011714935607014698,0.00018434762767671753,0.016660116368758873
12,0.22751075792735934,0.22596053675079333,0.7745524492043152,0.23942441457783872,0.23770262642713458,0.7744673063284713,-0.011913656650479387,-0.011742089676341244,8.514287584393543e-05,0.016727795254069148
13,0.24734533343488693,0.24536947167085835,0.7726896388140588,0.2592682852393897,0.2570805518921551,0.7725426232543283,-0.011922951804502785,-0.011711080221296771,0.00014701555973051228,0.016713102442603156
14,0.26721602967353847,0.2647414248838509,0.7708268284238025,0.279086229288473,0.27635564856411376,0.7704548875304338,-0.011870199614934518,-0.01161422368026288,0.00037194089336867187,0.01661114597557106
15,0.287122777690775,0.2840763291679011,0.7689640180335461,0.29887626494719843,0.29552020666133955,0.7682019476806334,-0.011753487256423445,-0.011443877493438448,0.0007620703529126471,0.01642216630029436
16,0.3067233749572827,0.30304304848026953,0.7662685873376789,0.31863641322849195,0.31456656061611776,0.765781471650788,-0.011913038271209264,-0.011523512135848235,0.00048711568689085993,0.016581589021826385
17,0.32637502443679633,0.3219568669052289,0.7635731566418117,0.33836469813399206,0.33348709214081446,0.7631909421364422,-0.011989673697195724,-0.011530225235585556,0.00038221450536946033,0.016638643492685207
18,0.3460775833533569,0.3408176470274153,0.7608777259459445,0.35805914685164836,0.35227423327509,0.760427651547437,-0.011981563498291437,-0.011456586247674705,0.0004500743985075273,0.016583540010449843
19,0.36583090856113093,0.35962525181680627,0.7581822952500773,0.37771778995300115,0.3709204694129827,0.7574886966029721,-0.011886881391870219,-0.01129521759617641,0.0006935986471051647,0.016412220107366027
20,0.3856348565454504,0.37837954462971635,0.7554868645542101,0.39733866159012243,0.38941834230865047,0.7543709725508718,-0.011703805044672055,-0.01103879767893412,0.0011158920033382813,0.016126974970007448
21,0.4050085404852601,0.3966275784068036,0.751883683358727,0.4169197996921991,0.40776045305957015,0.7510711670052485,-0.011911259206939029,-0.011132874652766522,0.0008125163534785651,0.016324189926418133
22,0.4244478494916496,0.4148056869850761,0.7482805021632439,0.43645924616173865,0.4259394650659996,0.7475857533974175,-0.012011396670089047,-0.011133778080923529,0.0006947487658264251,0.01639260016498593
23,0.4439525311860008,0.43291363435995545,0.7446773209677608,0.4559550470703768,0.44394810696551984,0.7439109840358401,-0.012002515884376008,-0.011034472605564394,0.0007663369319207414,0.01632198656815019
24,0.4635223323409684,0.4509511854377594,0.7410741397722778,0.47540525285426916,0.46177917554148284,0.7400428827720981,-0.011882920513300754,-0.010827990103723428,0.0010312570001796972,0.016109396655746483
25,0.4831569988837677,0.46891810603875383,0.7374709585767947,0.4948079185090459,0.479425538604203,0.7359772372714972,-0.0116509196252782,-0.01050743256544917,0.0014937213052974574,0.015760116451665387
26,0.49981668914999156,0.4840528119500729,0.7337797287241135,0.5141611037843102,0.49688013784373675,0.7317095908888981,-0.01434441463431868,-0.012827325893663866,0.0020701378352153688,0.01935427579219397
27,0.5165321314721313,0.4991259201485782,0.7300884988714322,0.5334628733776623,0.5141359916531132,0.7272352341528829,-0.01693074190553101,-0.015010071504534983,0.0028532647185492976,0.022805556068578443
28,0.5333030980995714,0.5141372252607235,0.726397269018751,0.5527112971282275,0.5311861979208834,0.7225491958644261,-0.019408199028656092,-0.017048972660159922,0.0038480731543248936,0.026118065114089976
29,0.5501293605251688,0.5290865227550393,0.7227060391660698,0.5719044502096711,0.5480239367918736,0.7176462338199793,-0.021775089684502258,-0.018937414036834244,0.005059805346090518,0.029298153718467133
30,0.5670106894883661,0.5439736089449203,0.7190148093133886,0.5910404133226791,0.5646424733950353,0.712520825173375,-0.02402972383431301,-0.020668864450114954,0.0064939841400135645,0.03235431061267299
31,0.5725108066146225,0.5487880064342674,0.7221387969585944,0.610117272886887,0.5810351605373051,0.7071671564563529,-0.037606466272264494,-0.03224715410303769,0.014971640502241534,0.05175205573269903
32,0.5779958568084451,0.5536195627010635,0.7252627846038002,0.6291331212322355,0.597195441362392,0.7015791132839158,-0.05113726442379041,-0.043575878661328504,0.02368367131988447,0.07123758348683511
33,0.5834657865396338,0.5584682305927456,0.728386772249006,0.6480860567897367,0.6131168519734339,0.6957502697783335,-0.06462027025010297,-0.05464862138068827,0.03263650247067251,0.09070497472313399
34,0.588920542425553,0.5633339627897536,0.7315107598942119,0.6669741842816288,0.6287930240184685,0.6896738777545541,-0.07805364185607577,-0.06545906122871492,0.04183688213965775,0.11012531230879123
35,0.5943600712316537,0.5682167118059915,0.7346347475394177,0.6857956149109028,0.6442176872376911,0.6833428557202919,-0.09143554367924911,-0.07600097543169959,0.05129189181912586,0.1294892469700654
36,0.5775733272074929,0.5530532633014524,0.7946347388727494,0.7045484665501799,0.6593846719714731,0.6767497777563413,-0.126975139342687,-0.10633140867002067,0.11788496111640812,0.20328777272197848
37,0.5617260512432944,0.5369105005268514,0.854634730206081,0.723230863929924,0.6742879116281452,0.6698868623569647,-0.16150481268662953,-0.13737741110129376,0.18474786784911634,0.2812261230338173
38,0.5468752764030538,0.5198465199793068,0.9146347215394127,0.7418409388259654,0.6889214451105513,0.6627459613267954,-0.19496566242291158,-0.16907492513124456,0.2518887602126173,0.36061875624208745
39,0.533074449423848,0.501922733544166,0.9746347128727444,0.7603768302463229,0.7032794192004101,0.6553185488498808,-0.2273023808224749,-0.2013566856562441,0.31931616402286356,0.44065144932509775
40,0.5203732383653533,0.48320364747859973,1.034634704206076,0.778836684617301,0.7173560908995228,0.6475957108685986,-0.2584634462519477,-0.23415244342092306,0.3870389933374774,0.5209893493845243
41,0.5408068379183614,0.517590678790201,1.0946347033682713,0.7972186559688459,0.731145829726896,0.6395681349355568,-0.2564118180504845,-0.21355515093669497,0.45506656843271454,0.5643034685633926
42,0.5591416838864003,0.5531411124928441,1.1546347025304666,0.8155209061191403,0.7446431199708592,0.6312261007306176,-0.25637922223274,-0.19150200747801505,0.523408601799849,0.6134817755229958
43,0.5753117906250851,0.5897270054186329,1.214634701692662,0.8337416048584215,0.757842562895277,0.6225594714682599,-0.25842981423333644,-0.16811555747664408,0.5920752302244021,0.6675341847393572
44,0.5892589632134009,0.6272166878647335,1.2746347008548573,0.8518789301319992,0.7707388788989693,0.6135576864580234,-0.26261996691859835,-0.1435221910342358,0.6610770143968339,0.7256656842564798
45,0.60093300689257,0.6654752374621057,1.3346347000170526,0.8699310682224605,0.7833269096274834,0.6042097551231719,-0.26899806132989046,-0.11785167216537773,0.7304249448938808,0.7872544529913083
46,0.6102919079670757,0.7043649658062021,1.394634659593538,0.8878962139310396,0.795601620036366,0.5945042528303504,-0.2776043059639639,-0.09123665423016392,0.8001304067631876,0.8518197846914995
47,0.6173019857423543,0.7437459105585128,1.4546346191700232,0.9057725707581367,0.8075581004051143,0.5844293189362826,-0.2884705850157824,-0.06381218984660153,0.8702053002337407,0.9189910437796776
48,0.6219380115423747,0.7834763430351616,1.5146345787465085,0.9235583510829657,0.8191915683009982,0.5739726575167142,-0.301620339540591,-0.03571522526583659,0.9406619212297943,0.9884812879321988
49,0.624183300703039,0.8234132767755603,1.5746345383229938,0.941251776342316,0.8304973704919704,0.5631215413080933,-0.3170684756392771,-0.007084093716410056,1.0115129970149006,1.0600665760970223
50,0.6240297726188749,0.8634129821385673,1.6346344978994791,0.958851077208406,0.8414709848078965,0.5518628194639037,-0.3348213045895311,0.021941997330670815,1.0827716784355754,1.1335701411364398
51,0.621477979824451,0.903331503573289,1.574634497899479,0.976354493765815,0.852108021949363,0.540182929805001,-0.354876513941364,0.05122348162392598,1.034451568094478,1.0948293163548262
52,0.6213244533572156,0.9433312089425021,1.514634497899479,0.9937602756874735,0.8624042272433384,0.5280679163262988,-0.37243582233025785,0.08092698169916368,0.9865665815731802,1.0576252824127943
53,0.6235697457466624,0.9832681425013758,1.454634497899479,1.0110666824096939,0.8723554823449863,0.5155034528098956,-0.38749693666303153,0.11091266015638956,0.9391310450895833,1.0219699672481835
54,0.6282057763648139,1.022998574415811,1.394634497899479,1.0282719833062262,0.8819578068849474,0.5024748734859666,-0.40006620694141226,0.1410407675308636,0.8921596244135123,0.9878736070347478
55,0.6352158605077572,1.0623795180346332,1.3346344978994789,1.0453744578613184,0.8912073600614354,0.4889672117755554,-0.4101585973535612,0.17117215797319774,0.8456672861239234,0.9553445145435461
56,0.6416540579343114,1.0891326084333202,1.3121758615038348,1.0623723958417668,0.900100442176505,0.4749652482411506,-0.4207183379074554,0.18903216625681518,0.8372106132626842,0.9558549527470346
57,0.6486914191683115,1.115734371135175,1.2897172251081908,1.0792640974679386,0.9086334961158833,0.4604535689580829,-0.4305726782996271,0.20710087501929175,0.8292636561501079,0.9570589402661233
58,0.6563243947818655,1.1421713890318006,1.2672585887125467,1.0960478735837471,0.916803108771767,0.44541663559766037,-0.43972347880188156,0.22536828026003364,0.8218419531148864,0.9589430616343626
59,0.6645491349375644,1.1684303281069963,1.2447999523169027,1.1127220458255676,0.9246060124080204,0.4298388685756445,-0.44817291088800315,0.2438243156989759,0.8149610837412582,0.9614940577001119
60,0.6733614913302206,1.1944979441620256,1.2223413159212586,1.1292849467900707,0.9320390859672264,0.4137047446598081,-0.45592345545985014,0.2624588581947992,0.8086365712614505,0.964698892849392
61,0.687019326456576,1.2320939767356998,1.1623413159593918,1.1457349202009626,0.9390993563190677,0.3969989104388761,-0.45871559374438653,0.29299462041663205,0.7653424055205158,0.9391564519425297
62,0.7029069935934994,1.2688033782367567,1.102341315997525,1.1620703210746102,0.945783999449539,0.37970631302149005,-0.4591633274811108,0.32301937878721776,0.722635002976035,0.9150813231083781
63,0.720967314295992,1.304494034461357,1.0423413160356583,1.178289515884539,0.9520903415905158,0.36181234924553096,-0.457322201588547,0.35240369287084117,0.6805289667901273,0.8924413893669656
64,0.7411352909124134,1.3390374975885386,0.9823413160737916,1.1943908827247842,0.958015860289225,0.3433030345211741,-0.45325559181237085,0.3810216372993136,0.6390382815526174,0.8711991993161808
65,0.7633383405058377,1.3723094484536655,0.9223413161119249,1.210372811472079,0.963558185417193,0.3241651921901698,-0.4470344709662414,0.4087512630364726,0.5981761239217551,0.8513119807074454
66,0.7874965702247867,1.4041901626371103,0.8623413161119249,1.2262337039468676,0.9687151001182652,0.30438666394296926,-0.4387371337220809,0.43547506251884505,0.5579546521689556,0.8327317674133966
67,0.8135230235259856,1.4345648845051457,0.8023413161119248,1.2419719740731194,0.9734845416953194,0.283956541378582,-0.42844895054713383,0.46108034280982635,0.5183847747333428,0.8154056416446392
68,0.841324033282747,1.4633242978598102,0.7423413161119248,1.2575860480369372,0.9778646024353163,0.26286541820488024,-0.4162620147541902,0.48545969542449396,0.47947589790704453,0.7992761209260707
69,0.8707995458814342,1.4903648998694665,0.6823413161119247,1.273074364443936,0.9818535303723597,0.24110566184802507,-0.4022748185625018,0.5085113694971068,0.44123565426389966,0.7842816746239889
70,0.9018434813064258,1.515589373567226,0.6223413161119247,1.2884353744753823,0.9854497299884603,0.2186717023624417,-0.3865918931689565,0.5301396435787656,0.40366961374948296,0.7703573785084655
71,0.934344114913619,1.538906938086939,0.5623413161119246,1.3036675420430732,0.9886517628517197,0.19556033550876473,-0.3693234271294542,0.5502551752352192,0.3667809806031599,0.7574356998663336
72,0.9681844795185005,1.5602336753762827,0.5023413161119246,1.3187693439429462,0.9914583481916864,0.1717710357084244,-0.3505848644244457,0.5687753271845962,0.33057028040350017,0.7454474027478398
73,1.003242786351701,1.579492832211128,0.44234131611192457,1.3337392700073958,0.9938683634116449,0.14730627331565815,-0.33049648365569473,0.585624468799483,0.2950350427962664,0.7343225589911087
74,1.039392863367049,1.596615096424263,0.38234131611192457,1.34857582325629,0.99588084453764,0.12217182931261213,-0.30918295988924105,0.6007342518866229,0.26016948679931245,0.723991647698418
75,1.076504609324688,1.6115388463543467,0.32234131611192457,1.3632775200466682,0.9974949866040543,0.0963770991912814,-0.2867729107219803,0.6140438597502924,0.22596421692064317,0.7143867239454784
76,1.1144444620150464,1.624210372617347,0.26234131611192457,1.3778428902211026,0.998710143975583,0.06993537651704462,-0.2633984282060562,0.6255002286417639,0.19240593959487995,0.7054426366500032
77,1.1530758789385633,1.634584071402323,0.20234131611192457,1.3922704772547134,0.9995258306054791,0.0428641055705861,-0.2391945983161501,0.6350582407968439,0.15947721054133848,0.6970982755319748
78,1.192259828711238,1.6426226085958995,0.14234131611192458,1.4065588384008205,0.9999417202299663,0.015185091651111312,-0.2142990096895825,0.6426808883659332,0.12715622446081326,0.6892978276796536
79,1.2318552914274767,1.648297054144758,0.08234131611192458,1.4207065448352156,0.99995764649874,-0.013075342784616575,-0.1888512534077389,0.6483394076460179,0.09541665889654115,0.6819920250380076
80,1.2717197661794695,1.651586986172588,0.02234131611192458,1.4347121817990456,0.9995736030415051,-0.041886267855577024,-0.16299241561957611,0.6520133831310829,0.06422758396750161,0.675139364778745
81,1.3092136915170376,1.6524247892075767,-0.03165979346245809,1.4485743487402851,0.998789743470524,-0.07121213282096248,-0.13936065722324753,0.6536350457370528,0.039552339358504385,0.6694957455773001
82,1.3466981820566313,1.651237641309601,-0.08566090303684076,1.4622916594537918,0.9976063813191736,-0.10101283897581732,-0.11559347739716053,0.6536312599904275,0.01535193593897656,0.6639513220037416
83,1.3840639550925349,1.6480290035030074,-0.13966201261122344,1.4758627422199255,0.9960239899165367,-0.13124390617594112,-0.09179878712739065,0.6520050135864707,-0.008418106435282319,0.6584894984552977
84,1.4212020740293791,1.6428082302865799,-0.1936631221856061,1.4892862399417186,0.994043202198076,-0.16185673736972372,-0.06808416591233946,0.6487650280885039,-0.03180638481588238,0.6531027188993415
85,1.4580042659771184,1.6355905423613284,-0.24766423175998878,1.5025608102805854,0.9916648104524687,-0.19279898196781758,-0.044556544303467005,0.6439257319088597,-0.054865249792171195,0.6477930452616676
86,1.4891938670618674,1.6277040851561628,-0.2729984923738863,1.515685125790554,0.9888897660047016,-0.22401499487154508,-0.026491258728686518,0.6388143191514613,-0.04898349750234121,0.6412370109168193
87,1.5201736833624804,1.6190300777169826,-0.29833275298778383,1.5286578740510102,0.9857191788355535,-0.25544638373627454,-0.008484190688529791,0.6333108988814291,-0.04288636925150929,0.6348180186488249
88,1.5509238323292291,1.6095740869387807,-0.3236670136016814,1.5414777577979386,0.9821543171376185,-0.28703263284555847,0.009446074531290538,0.6274197698011622,-0.03663438075612291,0.6285593637157739
89,1.5814245788106833,1.5993421815859763,-0.3490012742155789,1.5541434950536477,0.9781966068080447,-0.3187117881210078,0.02728108375703564,0.6211455747779316,-0.030289486094571105,0.6224817552065592
90,1.6116563477195414,1.5883409283975396,-0.37433553482947646,1.5666538192549668,0.9738476308781951,-0.3504211845928371,0.04500252846457453,0.6144932975193445,-0.023914350236639348,0.616602900099929
91,1.6425213917090062,1.5762153070365854,-0.40647819222720005,1.579007479379901,0.9691091288804564,-0.38209819537047346,0.0635139123291053,0.607106178156129,-0.024379996856726593,0.6109061407953146
92,1.6729808103695656,1.5631040352172079,-0.43862084962492365,1.591203240072732,0.9639829961524481,-0.41368097997668896,0.08177757029683352,0.5991210390647598,-0.02493986964823469,0.6051905382206184
93,1.703003137249169,1.5490206576892467,-0.47076350702264724,1.6032398817675544,0.9584712830789142,-0.44510920994479974,0.09976325548161458,0.5905493746103325,-0.0256542970778475,0.5994659406133956
94,1.7325573574384472,1.5339797234475017,-0.5029061644203708,1.6151162008102287,0.9525761942715953,-0.4763247508234524,0.11744115662821852,0.5814035291759063,-0.026581413596918457,0.593741577251571
95,1.76161293961102,1.517996770701726,-0.5350488218180944,1.6268310095787475,0.9463000876874145,-0.5072722820789922,0.13478193003227257,0.5716966830143114,-0.027776539739102213,0.5880261917573641
96,1.7897649885186522,1.5013105088584795,-0.5645477226302588,1.6383831366019965,0.9396454736853249,-0.5378998396315425,0.15138185191665565,0.5616650351731546,-0.026647882998716232,0.5823179427890665
97,1.817412634568912,1.4838011724953095,-0.5940466234424231,1.6497714266769001,0.9326150140222006,-0.5681592696408527,0.16764120789201198,0.5511861584731089,-0.025887353801570367,0.5766974171631807
98,1.844531820935366,1.465483996871851,-0.6235455242545874,1.660994740983941,0.9252115207881683,-0.5980065863693985,0.1835370799514251,0.5402724760836827,-0.025538937885188906,0.5711676159228505
99,1.8710989506160023,1.4463749201664908,-0.6530444250667518,1.672051957201041,0.9174379552818098,-0.6274022311885141,0.19904699341496124,0.528936964884681,-0.02564219387823763,0.5657309789253573
