timestep,px,py,theta,px_ref,py_ref,theta_ref,error_px,error_py,error_theta,error_norm
0,0.0,0.0,0.7853981633974483,0.0,0.0,0.7853981633974483,0.0,0.0,0.0,0.0
1,0.017436802112529574,0.017436802112529574,0.7850774985519811,0.01999966666833333,0.01999866669333308,0.7853231571470295,-0.0025628645558037552,-0.0025618645808035065,-0.0002456585950484369,0.003632048045812703
2,0.034879194697940374,0.03486801195922231,0.7847568337065138,0.03999733338666616,0.03998933418663416,0.7850980633706443,-0.005118138688725786,-0.005121322227411851,-0.0003412296641304158,0.007248428979971932
3,0.052327175962701956,0.052293627747697635,0.7844361688610466,0.05999100040499132,0.0599640064794446,0.7847226568420766,-0.0076638244422893645,-0.007670378731746967,-0.0002864879810300369,0.010846704123093926
4,0.06978074411270921,0.06971364768615018,0.7841155040155794,0.07997866837326832,0.07991469396917268,0.7841965616812204,-0.010197924260559113,-0.0102010462830225,-8.105766564103778e-05,0.014424478321160403
5,0.08723989735328253,0.08712806998334999,0.7837948391701122,0.09995833854135666,0.09983341664682815,0.7835192505983565,-0.012718441188074137,-0.012705346663478168,0.0002755885717556916,0.017979447409599073
6,0.1073334327865777,0.10715727559873155,0.7829000305006433,0.11992801295888919,0.11971220728891936,0.7826900438339384,-0.012594580172311493,-0.012554931690187815,0.00020998666670490884,0.017784652199642755
7,0.1274448824800373,0.12716849332828925,0.7820052218311744,0.13988569467506554,0.1395431146442365,0.7817081077917023,-0.012440812195028239,-0.012374621315947243,0.0002971140394720795,0.01754973895924126
8,0.14757423033077546,0.14716170714939122,0.7811104131617055,0.1598293879383454,0.15931820661424598,0.7805724533623122,-0.012255157607569928,-0.012156499464854753,0.0005379597993933061,0.017270169888311936
9,0.16772146022157564,0.167136901053821,0.7802156044922366,0.17975709839602208,0.17902957342582415,0.7792819339341677,-0.012035638174446445,-0.011892672372003144,0.000933670558068922,0.01694591346387099
10,0.18788655602090337,0.1870940590477904,0.7793207958227677,0.1996668332936563,0.19866933079506124,0.7778352430874435,-0.011780277272752937,-0.011575271747270854,0.001485552735324247,0.01658218066406031
11,0.2076278536149265,0.2065968529364018,0.7776770303136156,0.21955660167434962,0.21822962308086932,0.7762309119668949,-0.011928748059423122,-0.011632770144467536,0.001446118346720704,0.016724462017414142
12,0.22740118254429717,0.22606717042760757,0.7760332648044634,0.23942441457783872,0.23770262642713458,0.7744673063284713,-0.012023232033541553,-0.011635455999527006,0.0015659584759921685,0.016804587790179216
13,0.24720648938218376,0.24550495891330226,0.7743894992953113,0.2592682852393897,0.2570805518921551,0.7725426232543283,-0.01206179585720596,-0.011575592978852856,0.001846876040982992,0.016819400204042215
14,0.2670437206153514,0.26491016587327254,0.7727457337861592,0.279086229288473,0.27635564856411376,0.7704548875304338,-0.012042508673121566,-0.011445482690841224,0.0022908462557253984,0.01677107825203631
15,0.2869128226443068,0.2842827388753392,0.771101968277007,0.29887626494719843,0.29552020666133955,0.7682019476806334,-0.011963442302891647,-0.011237467786000321,0.0029000205963736203,0.016667775899483518
16,0.3064720218564125,0.3032905391715623,0.7686343820191011,0.31863641322849195,0.31456656061611776,0.765781471650788,-0.012164391372079475,-0.011276021444555473,0.002852910368313033,0.01683033495331642
17,0.32607806485994806,0.32225001763652666,0.7661667957611951,0.33836469813399206,0.33348709214081446,0.7631909421364422,-0.012286633274044001,-0.011237074504287792,0.0029758536247528333,0.016914162864939977
18,0.34573083227413226,0.341161058826369,0.7636992095032891,0.35805914685164836,0.35227423327509,0.760427651547437,-0.012328314577516097,-0.011113174448721008,0.0032715579558521,0.016917242036112168
19,0.36543020443368,0.36002354759215943,0.7612316232453831,0.37771778995300115,0.3709204694129827,0.7574886966029721,-0.012287585519321131,-0.010896921820823247,0.0037429266424109375,0.016844499485417597
20,0.3851760613895308,0.3788373690806028,0.7587640369874771,0.39733866159012243,0.38941834230865047,0.7543709725508718,-0.012162600200591622,-0.010580973228047685,0.004393064436605254,0.01670882560912822
21,0.40331744859947677,0.3960372498535026,0.7569435032195357,0.4169197996921991,0.40776045305957015,0.7510711670052485,-0.013602351092722342,-0.011723203206067567,0.005872336214287288,0.018892902934013807
22,0.42149011869249403,0.4132040751334871,0.7551229694515944,0.43645924616173865,0.4259394650659996,0.7475857533974175,-0.014969127469244614,-0.012735389932512498,0.0075372160541768984,0.02104933632614046
23,0.43969401143813364,0.4303377880238215,0.7533024356836531,0.4559550470703768,0.44394810696551984,0.7439109840358401,-0.01626103563224318,-0.01361031894169834,0.009391451647812965,0.023191839633393548
24,0.4579290665024641,0.4474383317375165,0.7514819019157117,0.47540525285426916,0.46177917554148284,0.7400428827720981,-0.017476186351805034,-0.01434084380396633,0.011439019143613671,0.02533629904663931
25,0.4761952234482714,0.4645056495975171,0.7496613681477704,0.4948079185090459,0.479425538604203,0.7359772372714972,-0.018612695060774453,-0.014919889006685894,0.013684130876273182,0.0275007444124005
26,0.4856166098786928,0.4732766224987593,0.7585556894105411,0.5141611037843102,0.49688013784373675,0.7317095908888981,-0.02854449390561742,-0.023603515344977455,0.02684609852164299,0.04574524100714934
27,0.4949596128313713,0.48213104420386765,0.7674500106733118,0.5334628733776623,0.5141359916531132,0.7272352341528829,-0.038503260546290996,-0.032004947449245535,0.04021477652042882,0.06421873546335656
28,0.5042234931960192,0.49106821425344954,0.7763443319360824,0.5527112971282275,0.5311861979208834,0.7225491958644261,-0.04848780393220831,-0.040117983667433854,0.05379513607165631,0.0827915237731302
29,0.5134075181216126,0.5000874256420208,0.7852386531988531,0.5719044502096711,0.5480239367918736,0.7176462338199793,-0.058496932088058506,-0.047936511149852756,0.06759241937887384,0.10143241751247205
30,0.5225109610743657,0.5091879648739357,0.7941329744616238,0.5910404133226791,0.5646424733950353,0.712520825173375,-0.06852945224831342,-0.055454508521099566,0.08161214928824878,0.12013338941450864
31,0.5023755346332125,0.4886976714200199,0.84169884664047,0.610117272886887,0.5810351605373051,0.7071671564563529,-0.1077417382536745,-0.09233748911728518,0.13453169018411715,0.19553329568695801
32,0.48323715342057244,0.46727315536120684,0.8892647188193163,0.6291331212322355,0.597195441362392,0.7015791132839158,-0.14589596781166309,-0.12992228600118516,0.1876856055354006,0.27090832462046194
33,0.46513911009391606,0.4449628807877924,0.9368305909981627,0.6480860567897367,0.6131168519734339,0.6957502697783335,-0.18294694669582068,-0.16815397118564152,0.24108032121982914,0.346215344273302
34,0.4481223439773129,0.4218173154516962,0.984396463177009,0.6669741842816288,0.6287930240184685,0.6896738777545541,-0.21885184030431593,-0.20697570856677228,0.2947225854224549,0.4214219670347044
35,0.4322253484531737,0.39788881660408415,1.0319623353558554,0.6857956149109028,0.6442176872376911,0.6833428557202919,-0.2535702664577291,-0.24632887063360698,0.3486194796355635,0.4964990776632351
36,0.4349206640232168,0.4023971961403109,1.0919623353558554,0.7045484665501799,0.6593846719714731,0.6767497777563413,-0.2696278025269631,-0.2569874758311622,0.41521255759951414,0.5578020998686909
37,0.43734078898080747,0.40705908494791143,1.1519623353558555,0.723230863929924,0.6742879116281452,0.6698868623569647,-0.2858900749491165,-0.26722882668023373,0.48207547299889075,0.6209195941749704
38,0.43947701348951973,0.41185770526141424,1.2119623353558555,0.7418409388259654,0.6889214451105513,0.6627459613267954,-0.3023639253364456,-0.27706373984913707,0.5492163740290601,0.6854391911655493
39,0.44132164944796787,0.41677578722957875,1.2719623353558556,0.7603768302463229,0.7032794192004101,0.6553185488498808,-0.319055180798355,-0.2865036319708314,0.6166437865059747,0.7510859464556469
40,0.4428680581586692,0.4217956310682108,1.3319623353558556,0.778836684617301,0.7173560908995228,0.6475957108685986,-0.33596862645863185,-0.295560459831312,0.684366624487257,0.8176726607220511
41,0.4523308522810592,0.46066020629546245,1.391962315123821,0.7972186559688459,0.731145829726896,0.6395681349355568,-0.3448878036877867,-0.27048562343143356,0.7523941801882642,0.8707508667792682
42,0.4594461436389515,0.5000222731757693,1.4519622948917863,0.8155209061191403,0.7446431199708592,0.6312261007306176,-0.3560747624801888,-0.24462084679508989,0.8207361941611687,0.927489350649499
43,0.46418832488431466,0.539740170869801,1.5119622746597516,0.8337416048584215,0.757842562895277,0.6225594714682599,-0.36955327997410686,-0.218102392025476,0.8894028031914918,0.9875098108230309
44,0.46654032929711303,0.5796709579324124,1.571962254427717,0.8518789301319992,0.7707388788989693,0.6135576864580234,-0.3853386008348862,-0.1910679209665569,0.9584045679696935,1.0504913629445247
45,0.46649369220702736,0.6196709267471412,1.6319622341956823,0.8699310682224605,0.7833269096274834,0.6042097551231719,-0.4034373760154331,-0.16365598288034222,1.0277524790725105,1.1161631401092047
46,0.464048581904744,0.6595961134088104,1.6357896007017072,0.8878962139310396,0.795601620036366,0.5945042528303504,-0.42384763202629555,-0.13600550662755562,1.0412853478713568,1.1324396181249086
47,0.4614506815622233,0.699511649333683,1.639616967207732,0.9057725707581367,0.8075581004051143,0.5844293189362826,-0.44432188919591337,-0.1080464510714313,1.0551876482714495,1.1500073694861217
48,0.4587000292353708,0.7394169498103897,1.643444333713757,0.9235583510829657,0.8191915683009982,0.5739726575167142,-0.4648583218475949,-0.0797746184906084,1.0694716761970429,1.1688570979097475
49,0.45579666521771256,0.7793114302774974,1.6472717002197819,0.941251776342316,0.8304973704919704,0.5631215413080933,-0.4854551111246035,-0.05118594021447298,1.0841501589116884,1.1889778099110513
50,0.45274063203980497,0.8191945063320721,1.6510990667258068,0.958851077208406,0.8414709848078965,0.5518628194639037,-0.506110445168601,-0.02227647847582437,1.099236247261903,1.2103571173403638
51,0.4495319751701099,0.8590655850213559,1.5910990667258067,0.976354493765815,0.852108021949363,0.540182929805001,-0.5268225185957051,0.006957563071992912,1.0509161369208058,1.175591383357318
52,0.4487199217711801,0.8990573212181227,1.5310990667258066,0.9937602756874735,0.8624042272433384,0.5280679163262988,-0.5450403539162934,0.03665309397478422,1.003031150399508,1.142140063813052
53,0.45030739435833933,0.9390257878579565,1.4710990667258066,1.0110666824096939,0.8723554823449863,0.5155034528098956,-0.5607592880513546,0.06667030551297026,0.955595613915911,1.1099814800745018
54,0.45428867974453846,0.9788271416217186,1.4110990667258065,1.0282719833062262,0.8819578068849474,0.5024748734859666,-0.5739833035616877,0.09686933473677117,0.9086241932398399,1.0790914814419967
55,0.4606494496016595,1.0183181406161634,1.3510990667258065,1.0453744578613184,0.8912073600614354,0.4889672117755554,-0.5847250082596589,0.12711078055472802,0.862131854950251,1.0494435769194317
56,0.4693668161548011,1.0573566783752861,1.2910990689857267,1.0623723958417668,0.900100442176505,0.4749652482411506,-0.5930055796869658,0.15725623619878115,0.8161338207445761,1.0210090865053165
57,0.48040940319921227,1.0958022396452023,1.2310990712456469,1.0792640974679386,0.9086334961158833,0.4604535689580829,-0.5988546942687263,0.187168743529319,0.770645502287564,0.9937573011546056
58,0.493737469349089,1.133516461931984,1.171099073505567,1.0960478735837471,0.916803108771767,0.44541663559766037,-0.6023104042346581,0.216713353160217,0.7256824379079068,0.9676556728378256
59,0.5093030479624883,1.170363614772093,1.1110990757654873,1.1127220458255676,0.9246060124080204,0.4298388685756445,-0.6034189978630793,0.24575760236407262,0.6812602071898428,0.942670014375215
60,0.5270501197694282,1.2062110882154418,1.0510990780254075,1.1292849467900707,0.9320390859672264,0.4137047446598081,-0.6022348270206426,0.27417200224821536,0.6373943333655994,0.9187647195555321
61,0.546914815039494,1.2409298710545251,0.9910990780819436,1.1457349202009626,0.9390993563190677,0.3969989104388761,-0.5988201051614686,0.3018305147354574,0.5941001676430675,0.8959030009797848
62,0.5688256419009513,1.2743950121157435,0.9310990781384798,1.1620703210746102,0.945783999449539,0.37970631302149005,-0.5932446791736589,0.3286110126662045,0.5513927651169898,0.8740471545841939
63,0.5927037450381009,1.306486073029519,0.871099078195016,1.178289515884539,0.9520903415905158,0.36181234924553096,-0.5855857708464381,0.35439573143900316,0.509286728949485,0.853158837359181
64,0.6184631890650678,1.3370875606309667,0.8110990782515521,1.1943908827247842,0.958015860289225,0.3433030345211741,-0.5759276936597164,0.37907170034174165,0.46779604373037803,0.8331993764123765
65,0.6460112678003911,1.3660893426105698,0.7510990783080883,1.210372811472079,0.963558185417193,0.3241651921901698,-0.564361543671688,0.40253115719337684,0.4269338861179185,0.8141301048374746
66,0.6752488379091653,1.3933870438715645,0.6910990784427701,1.2262337039468676,0.9687151001182652,0.30438666394296926,-0.5509848660377022,0.4246719437532993,0.3867124144998008,0.7959127301042846
67,0.7060706757099917,1.4188824221699847,0.6310990785774518,1.2419719740731194,0.9734845416953194,0.283956541378582,-0.5359012983631277,0.44539788047466533,0.34714253719886984,0.778509739599627
68,0.7383658558708756,1.4424837216760724,0.5710990787121336,1.2575860480369372,0.9778646024353163,0.26286541820488024,-0.5192201921660616,0.46461911924075616,0.30823366050725337,0.7618848491647007
69,0.7720181506183686,1.464106003198332,0.5110990788468154,1.273074364443936,0.9818535303723597,0.24110566184802507,-0.5010562138255673,0.4822524728259723,0.2699934169987903,0.7460035001142156
70,0.8069064480320409,1.4836714498728945,0.45109907898149715,1.2884353744753823,0.9854497299884603,0.2186717023624417,-0.48152892644334133,0.4982217198844342,0.23242737661905544,0.730833410955121
71,0.8429051879166067,1.5011096472201941,0.39109907898149715,1.3036675420430732,0.9886517628517197,0.19556033550876473,-0.4607623541264665,0.5124578843684744,0.19553874347273242,0.7163451894376558
72,0.8798848136850905,1.5163578365560755,0.33109907898149715,1.3187693439429462,0.9914583481916864,0.1717710357084244,-0.4388845302578557,0.524899488364389,0.15932804327307276,0.7025130099564578
73,0.9177122386179295,1.5293611408649976,0.27109907898149715,1.3337392700073958,0.9938683634116449,0.14730627331565815,-0.4160270313894663,0.5354927774533528,0.123792805665839,0.6893153590962979
74,0.9562513248340822,1.5400727622933321,0.21109907898149716,1.34857582325629,0.99588084453764,0.12217182931261213,-0.39232449842220796,0.5441919177556921,0.08892724966888503,0.6767358503482191
75,0.9953633732403891,1.5484541505710998,0.15109907898149716,1.3632775200466682,0.9974949866040543,0.0963770991912814,-0.3679141468062791,0.5509591639670455,0.05472197979021576,0.664764104665421
76,1.0349076226985314,1.5544751417513138,0.10865688112040328,1.3778428902211026,0.998710143975583,0.06993537651704462,-0.3429352675225712,0.5557649977757309,0.03872150460335866,0.6542007989770293
77,1.074671728566062,1.5588128697920989,0.0662146832593094,1.3922704772547134,0.9995258306054791,0.0428641055705861,-0.31759874868865134,0.5592870391866198,0.023350577688723305,0.6435963073613225
78,1.11458407291384,1.5614595221425958,0.02377248539821552,1.4065588384008205,0.9999417202299663,0.015185091651111312,-0.2919747654869804,0.5615178019126295,0.008587393747104207,0.6329496416598527
79,1.1545727708248785,1.5624103319972555,-0.018669712462878366,1.4207065448352156,0.99995764649874,-0.013075342784616575,-0.2661337740103371,0.5624526854985156,-0.0055943696782617906,0.622263212849333
80,1.1945657998640953,1.561663586881189,-0.06111191032397225,1.4347121817990456,0.9995736030415051,-0.041886267855577024,-0.2401463819349503,0.5620899838396839,-0.019225642468395227,0.6115431791931504
81,1.2344911297957444,1.5592206317344528,-0.09227928056061069,1.4485743487402851,0.998789743470524,-0.07121213282096248,-0.21408321894454074,0.5604308882639288,-0.021067147739648212,0.6002984506625322
82,1.274320941304287,1.5555346969556008,-0.12344665079724912,1.4622916594537918,0.9976063813191736,-0.10101283897581732,-0.18797071814950472,0.5579283156364272,-0.022433811821431796,0.5891691371612915
83,1.314016546644912,1.5506093627901505,-0.15461402103388755,1.4758627422199255,0.9960239899165367,-0.13124390617594112,-0.16184619557501345,0.5545853728736138,-0.023370114857946434,0.5781913948650086
84,1.3535393884307925,1.5444494133448825,-0.18578139127052598,1.4892862399417186,0.994043202198076,-0.16185673736972372,-0.13574685151092614,0.5504062111468065,-0.023924653900802256,0.5674033785838657
85,1.3928510770848925,1.5370608319409114,-0.2169487615071644,1.5025608102805854,0.9916648104524687,-0.19279898196781758,-0.10970973319569288,0.5453960214884427,-0.024149779539346827,0.5568449134768952
86,1.4319134272398613,1.5284507954978603,-0.2470393701628615,1.515685125790554,0.9888897660047016,-0.22401499487154508,-0.08377169855069266,0.5395610294931588,-0.02302437529131643,0.5465106804842343
87,1.470699052188014,1.518669424195161,-0.2771299788185586,1.5286578740510102,0.9857191788355535,-0.25544638373627454,-0.05795882186299606,0.5329502453596076,-0.02168359508228407,0.5365308633772198
88,1.5091728363393926,1.5077255738556696,-0.3072205874742557,1.5414777577979386,0.9821543171376185,-0.28703263284555847,-0.03230492145854602,0.5255712567180512,-0.020187954628697213,0.5269500046026423
89,1.5472999464373398,1.4956291527833414,-0.33731119612995275,1.5541434950536477,0.9781966068080447,-0.3187117881210078,-0.006843548616307871,0.5174325459752968,-0.01859940800894494,0.5178119463380741
90,1.5850458630957094,1.4823911127924867,-0.3674018047856498,1.5666538192549668,0.9738476308781951,-0.3504211845928371,0.018392043840742556,0.5085434819142916,-0.016980620192812712,0.5091591909572916
91,1.616185533325918,1.4704061667554627,-0.3977479807555871,1.579007479379901,0.9691091288804564,-0.38209819537047346,0.03717805394601714,0.5012970378750062,-0.015649785385113635,0.502917332829232
92,1.6469472250816763,1.4574819138223047,-0.42809415672552437,1.591203240072732,0.9639829961524481,-0.41368097997668896,0.055743985008944286,0.49349891766985665,-0.01441317674883541,0.49684636787440695
93,1.6773026123903412,1.4436302549000866,-0.45844033269546164,1.6032398817675544,0.9584712830789142,-0.44510920994479974,0.07406273062278679,0.4851589718211724,-0.013331122750661895,0.49096052268962914
94,1.7072237434124207,1.4288639448696128,-0.4887865086653989,1.6151162008102287,0.9525761942715953,-0.4763247508234524,0.092107542602192,0.4762877505980174,-0.01246175784194653,0.4852722083351211
95,1.7366830661801784,1.4131965808404725,-0.5191326846353361,1.6268310095787475,0.9463000876874145,-0.5072722820789922,0.10985205660143094,0.46689649315305803,-0.011860402556343907,0.4797921204094395
96,1.76172275247205,1.3988886347470273,-0.54886199328772,1.6383831366019965,0.9396454736853249,-0.5378998396315425,0.12333961587005349,0.4592431610617024,-0.010962153656177476,0.47564389057119055
97,1.786326071453688,1.3838427081854607,-0.5785913019401039,1.6497714266769001,0.9326150140222006,-0.5681592696408527,0.1365546447767878,0.45122769416326014,-0.01043203229925116,0.47155321045233056
98,1.810471279531108,1.368072098244613,-0.6083206105924878,1.660994740983941,0.9252115207881683,-0.5980065863693985,0.14947653854716703,0.4428605774564448,-0.010314024223089246,0.4675201661284494
99,1.8341370379734876,1.3515907424643623,-0.6380499192448716,1.672051957201041,0.9174379552818098,-0.6274022311885141,0.16208508077244654,0.43415278718255246,-0.010647688056357518,0.4635445925564602
