timestep,px,py,theta,px_ref,py_ref,theta_ref,error_px,error_py,error_theta,error_norm
0,0.0,0.0,0.7853981633974483,0.0,0.0,0.7853981633974483,0.0,0.0,0.0,0.0
1,0.020000000000000004,0.020000000000000004,0.7853231571470295,0.01999966666833333,0.01999866669333308,0.7853231571470295,3.333316666749575e-07,1.3333066669236893e-06,0.0,1.3743422674397607e-06
2,0.039998819356608054,0.03999581950870429,0.785097907719183,0.03999733338666616,0.03998933418663416,0.7850980633706443,1.4859699418931505e-06,6.48532207012803e-06,-1.5565146127549667e-07,6.655203708294499e-06
3,0.059993958498434016,0.059978954946219826,0.7847217536776666,0.05999100040499132,0.0599640064794446,0.7847226568420766,2.9580934426953753e-06,1.4948466775223379e-05,-9.031644100376823e-07,1.5265080468089034e-05
4,0.07998303588536754,0.07994100899541234,0.7841939699981209,0.07997866837326832,0.07991469396917268,0.7841965616812204,4.367512099215376e-06,2.6315026239662198e-05,-2.591683099573139e-06,2.6800608000930046e-05
5,0.09996376287949969,0.09987367252489919,0.7835137523426793,0.09995833854135666,0.09983341664682815,0.7835192505983565,5.4243381430313375e-06,4.025587807103548e-05,-5.498255677194308e-06,4.099012050545618e-05
6,0.11993392403555228,0.11976871116882797,0.7826802034876316,0.11992801295888919,0.11971220728891936,0.7826900438339384,5.911076663089876e-06,5.650387990860373e-05,-9.840346306799752e-06,5.765814502288974e-05
7,0.13989136164447988,0.13961795554555675,0.7816923214942543,0.13988569467506554,0.1395431146442365,0.7817081077917023,5.66696941434186e-06,7.484090132026111e-05,-1.5786297448028286e-05,7.669734180458781e-05
8,0.15983396361686264,0.15941329431784584,0.7805489892819008,0.1598293879383454,0.15931820661424598,0.7805724533623122,4.575678517249049e-06,9.508770359986651e-05,-2.3464080411428334e-05,9.804678107588876e-05
9,0.17975965399052476,0.17914666947011237,0.7792489653190581,0.17975709839602208,0.17902957342582415,0.7792819339341677,2.5555945026844995e-06,0.00011709604428822296,-3.296861510959648e-05,0.00012167556958344735
10,0.19966638550155597,0.1988100733138968,0.7777908751946615,0.1996668332936563,0.19866933079506124,0.7778352430874435,-4.4779210034429084e-07,0.0001407425188355571,-4.436789278194908e-05,0.00014757088817193183
11,0.21689256243570568,0.2157761350167221,0.7760403094008007,0.21955660167434962,0.21822962308086932,0.7762309119668949,-0.002664039238643945,-0.002453488064147219,-0.0001906025660941557,0.0036267117453899138
12,0.23466275907633746,0.2332168237149298,0.7741792319044092,0.23942441457783872,0.23770262642713458,0.7744673063284713,-0.004761655501501261,-0.004485802712204778,-0.0002880744240620903,0.006548188754273938
13,0.2528538805014869,0.2510042869282587,0.7721938525482056,0.2592682852393897,0.2570805518921551,0.7725426232543283,-0.006414404737902835,-0.006076264963896405,-0.0003487707061227141,0.008842354045080679
14,0.2713688087797659,0.26903660594400036,0.7700731376770098,0.279086229288473,0.27635564856411376,0.7704548875304338,-0.007717420508707107,-0.007319042620113403,-0.00038174985342398493,0.010642964677844176
15,0.29013083517835275,0.2872322113415163,0.7678080890849728,0.29887626494719843,0.29552020666133955,0.7682019476806334,-0.00874542976884568,-0.008287995319823271,-0.0003938585956606566,0.01205522844481184
16,0.30907928329562145,0.30552550684909163,0.7653911995720436,0.31863641322849195,0.31456656061611776,0.765781471650788,-0.0095571299328705,-0.00904105376702613,-0.0003902720787444247,0.01316175132979932
17,0.3281660699797164,0.32386343862524497,0.7628160409189984,0.33836469813399206,0.33348709214081446,0.7631909421364422,-0.010198628154275635,-0.009623653515569486,-0.0003749012174438793,0.014027375882172599
18,0.3473530039612483,0.3422028050176695,0.7600769515794572,0.35805914685164836,0.35227423327509,0.760427651547437,-0.010706142890400061,-0.010071428257420523,-0.0003506999679797618,0.01470299810248146
19,0.3666096661828227,0.360508148412965,0.7571688248507971,0.37771778995300115,0.3709204694129827,0.7574886966029721,-0.011108123770178446,-0.010412321000017655,-0.0003198717521750716,0.015228563958523851
20,0.3855455372466596,0.37840400781336625,0.7543849519690705,0.39733866159012243,0.38941834230865047,0.7543709725508718,-0.011793124343462857,-0.011014334495284217,1.3979418198695193e-05,0.01613671408864014
21,0.4036952923889077,0.39546152225824865,0.7521573525298767,0.4169197996921991,0.40776045305957015,0.7510711670052485,-0.013224507303291388,-0.012298930801321495,0.001086185524628247,0.018092293698268713
22,0.42093110500453457,0.4115879386882829,0.7505613345322204,0.43645924616173865,0.4259394650659996,0.7475857533974175,-0.015528141157204078,-0.014351526377716695,0.002975581134802896,0.021352834946632922
23,0.4372179161212857,0.42677775994327366,0.7496662490380749,0.4559550470703768,0.44394810696551984,0.7439109840358401,-0.01873713094909113,-0.01717034702224618,0.005755265002234777,0.026058088347261688
24,0.4524034670823946,0.44091510166889,0.749619319028123,0.47540525285426916,0.46177917554148284,0.7400428827720981,-0.02300178577187456,-0.02086407387259287,0.00957643625602489,0.03249769005055485
25,0.4662259590416731,0.45378226106274827,0.7506476427319855,0.4948079185090459,0.479425538604203,0.7359772372714972,-0.028581959467372797,-0.025643277541454734,0.014670405460488256,0.04110628767521754
26,0.47828902004691054,0.4650347676533343,0.7530920386879286,0.5141611037843102,0.49688013784373675,0.7317095908888981,-0.035872083737399696,-0.031845370190402456,0.021382447799030535,0.052518026125370085
27,0.48802862552001175,0.4741645637224717,0.7574583993011599,0.5334628733776623,0.5141359916531132,0.7272352341528829,-0.045434247857650545,-0.03997142793064151,0.030223165148276943,0.06764189264638382
28,0.4946177678334456,0.48039542492862564,0.7645131784211004,0.5527112971282275,0.5311861979208834,0.7225491958644261,-0.058093529294781954,-0.05079077299225776,0.04196398255667433,0.08783812725173287
29,0.4967879164230189,0.4824767682611345,0.775462821452195,0.5719044502096711,0.5480239367918736,0.7176462338199793,-0.07511653378665217,-0.06554716853073905,0.057816587632215755,0.11524618325980279
30,0.4952032271028333,0.48092325904247113,0.7922494824694348,0.5910404133226791,0.5646424733950353,0.712520825173375,-0.09583718621984577,-0.08371921435256413,0.07972865729605982,0.15016767930743463
31,0.4914810168305089,0.47714969200452695,0.817801821979006,0.610117272886887,0.5810351605373051,0.7071671564563529,-0.11863625605637812,-0.10388546853277814,0.11063466552265311,0.19263120473759873
32,0.48594200457781545,0.4712395555436637,0.8560691153720915,0.6291331212322355,0.597195441362392,0.7015791132839158,-0.14319111665442008,-0.1259558858187283,0.15449000208817576,0.2454297084835591
33,0.4786012145928549,0.4627802985602432,0.9111363992595843,0.6480860567897367,0.6131168519734339,0.6957502697783335,-0.16948484219688187,-0.1503365534131907,0.2153861294812508,0.3125977859799606
34,0.4696608191207576,0.45125263622944095,0.9711363992595843,0.6669741842816288,0.6287930240184685,0.6896738777545541,-0.19731336516087122,-0.17754038778902753,0.28146252150503015,0.3868776348916478
35,0.4602019429047415,0.43741654081534126,1.0311363991224036,0.6857956149109028,0.6442176872376911,0.6833428557202919,-0.22559367200616132,-0.20680114642234987,0.34779354340211177,0.46327051259822083
36,0.4580943208896795,0.4338977819758206,1.0911363942467387,0.7045484665501799,0.6593846719714731,0.6767497777563413,-0.2464541456605004,-0.22548688999565253,0.41438661649039743,0.5322595714494183
37,0.4765534211793809,0.46938385800887683,1.1511363939244923,0.723230863929924,0.6742879116281452,0.6698868623569647,-0.2466774427505431,-0.20490405361926833,0.4812495315675276,0.5783048880871752
38,0.49285141564995555,0.5059129551089888,1.2111363920601796,0.7418409388259654,0.6889214451105513,0.6627459613267954,-0.2489895231760098,-0.1830084900015625,0.5483904307333842,0.6294600500301948
39,0.5069296532500839,0.5433536170058413,1.2637784490551651,0.7603768302463229,0.7032794192004101,0.6553185488498808,-0.253447176996239,-0.15992580219456887,0.6084599002052843,0.6782589357264405
40,0.5190183455105454,0.5814831789283196,1.2811330935335157,0.778836684617301,0.7173560908995228,0.6475957108685986,-0.25981833910675567,-0.13587291197120321,0.6335373826649171,0.6980950026877725
41,0.5304435256797851,0.6198167837431607,1.270405246797204,0.7972186559688459,0.731145829726896,0.6395681349355568,-0.26677513028906075,-0.11132904598373528,0.6308371118616473,0.6939154042982029
42,0.542279277561578,0.6580256175043819,1.2375196501541326,0.8155209061191403,0.7446431199708592,0.6312261007306176,-0.2732416285575623,-0.08661750246647726,0.606293549423515,0.6706380897196962
43,0.5553649238870115,0.6958246368070791,1.188373713001013,0.8337416048584215,0.757842562895277,0.6225594714682599,-0.27837668097141,-0.062017926088197894,0.5658142415327532,0.6336288784345487
44,0.5702916907726556,0.7329351691420068,1.1283737133035936,0.8518789301319992,0.7707388788989693,0.6135576864580234,-0.2815872393593436,-0.037803709756962456,0.5148160268455702,0.5880102340422858
45,0.5874168938357303,0.7690838540426842,1.0683737133035935,0.8699310682224605,0.7833269096274834,0.6042097551231719,-0.2825141743867302,-0.014243055584799214,0.46416395818042167,0.5435672023177297
46,0.606678900755399,0.804140595041052,1.0083737133035935,0.8878962139310396,0.795601620036366,0.5945042528303504,-0.2812173131756406,0.008538975004685923,0.41386946047324313,0.5004438246559451
47,0.6280083875703103,0.8379792232879857,0.9483737134359976,0.9057725707581367,0.8075581004051143,0.5844293189362826,-0.27776418318782636,0.030421122882871354,0.36394439449971505,0.45883974159527563
48,0.6513285942250019,0.8704779611339771,0.8883737134359977,0.9235583510829657,0.8191915683009982,0.5739726575167142,-0.2722297568579638,0.05128639283297898,0.31440105591928347,0.41903145296257316
49,0.6765555904377496,0.9015198443141093,0.82837371444814,0.941251776342316,0.8304973704919704,0.5631215413080933,-0.26469618590456645,0.07102247382213889,0.2652521731400467,0.38140133452278124
50,0.7035985886062406,0.930993158516265,0.768373714454563,0.958851077208406,0.8414709848078965,0.5518628194639037,-0.25525248860216543,0.08952217370836846,0.21651089499065934,0.3464751364423228
51,0.7323602118447642,0.9587917816897192,0.708373825307161,0.976354493765815,0.852108021949363,0.540182929805001,-0.24399428192105077,0.10668375974035627,0.16819089550215993,0.31496477824087843
52,0.7627370455231385,0.9848157680164452,0.6498638701408807,0.9937602756874735,0.8624042272433384,0.5280679163262988,-0.23102323016433501,0.12241154077310679,0.12179595381458186,0.28842775968275497
53,0.7945836925276467,1.0090188891905882,0.6021510729271825,1.0110666824096939,0.8723554823449863,0.5155034528098956,-0.21648298988204717,0.13666340684560196,0.08664762011728688,0.2702768612939456
54,0.8275484572975561,1.0316755501022172,0.5626076381165052,1.0282719833062262,0.8819578068849474,0.5024748734859666,-0.20072352600867005,0.14971774321726983,0.060132764630538516,0.2575291942858854
55,0.8581366110123096,1.0509640759308139,0.5291325555290327,1.0453744578613184,0.8912073600614354,0.4889672117755554,-0.1872378468490088,0.15975671586937845,0.0401653437534773,0.24938619528124883
56,0.8865616529479239,1.0675856864895188,0.5001346324061099,1.0623723958417668,0.900100442176505,0.4749652482411506,-0.1758107428938429,0.16748524431301381,0.025169384164959285,0.24411927879362202
57,0.9131978234082454,1.0821417494223433,0.4743987341515322,1.0792640974679386,0.9086334961158833,0.4604535689580829,-0.1660662740596932,0.17350825330646003,0.013945165193449294,0.24057761528828991
58,0.9383730663952916,1.0950695403595188,0.45099728743226114,1.0960478735837471,0.916803108771767,0.44541663559766037,-0.1576748071884555,0.1782664315877518,0.005580651834600769,0.2380575752372653
59,0.9623650302962576,1.1066885043246768,0.4292223558673423,1.1127220458255676,0.9246060124080204,0.4298388685756445,-0.1503570155293099,0.18208249191665637,-0.0006165127083022082,0.23613903969775915
60,0.9854040086033595,1.1172329873792024,0.4085334343764969,1.1292849467900707,0.9320390859672264,0.4137047446598081,-0.14388093818671122,0.185193901411976,-0.005171310283311192,0.2345746106118972
61,1.0076785997251263,1.1268754063487247,0.38851749298235466,1.1457349202009626,0.9390993563190677,0.3969989104388761,-0.13805632047583627,0.18777605002965703,-0.008481417456521423,0.2332194825269511
62,1.0293420168172207,1.135742740547354,0.3688585025298103,1.1620703210746102,0.945783999449539,0.37970631302149005,-0.13272830425738946,0.18995874109781496,-0.010847810491679766,0.23198879512375645
63,1.050518093818705,1.1439283641317959,0.3493142620589267,1.178289515884539,0.9520903415905158,0.36181234924553096,-0.12777142206583392,0.19183802254128013,-0.012498087186604279,0.23083233173149323
64,1.0713066012822035,1.1515006108116193,0.329698826840421,1.1943908827247842,0.958015860289225,0.3433030345211741,-0.12308428144258077,0.19348475052239422,-0.0136042076807531,0.22971974989010116
65,1.0917877660390847,1.158509027696165,0.30986921970485487,1.210372811472079,0.963558185417193,0.3241651921901698,-0.11858504543299442,0.19495084227897197,-0.014295972485314945,0.22863205972681705
66,1.1120260201375165,1.1649889789122652,0.2897154109520097,1.2262337039468676,0.9687151001182652,0.30438666394296926,-0.11420768380935109,0.19627387879399993,-0.01467125299095956,0.2275567538049865
67,1.1320730595080075,1.170965059106588,0.26915278832753825,1.2419719740731194,0.9734845416953194,0.283956541378582,-0.10989891456511192,0.1974805174112687,-0.014803753051043755,0.22648504869860275
68,1.1519703096440235,1.1764536408536563,0.24811652137973308,1.2575860480369372,0.9778646024353163,0.26286541820488024,-0.10561573839291372,0.19858903841834008,-0.014748896825147156,0.2254103376816604
69,1.1717508942350667,1.1814647869551758,0.2265573651176463,1.273074364443936,0.9818535303723597,0.24110566184802507,-0.10132347020886923,0.1996112565828161,-0.014548296730378774,0.22432733294784565
70,1.1914411935161526,1.1860036943635766,0.20443855548030518,1.2884353744753823,0.9854497299884603,0.2186717023624417,-0.09699418095922963,0.2005539643751163,-0.014233146882136533,0.22323159775599796
71,1.2110620673557642,1.1900717915580763,0.18173353110515492,1.3036675420430732,0.9886517628517197,0.19556033550876473,-0.09260547468730906,0.20142002870635656,-0.01382680440360981,0.22211929773467912
72,1.2306298063505692,1.1936675794173637,0.1584242781301653,1.3187693439429462,0.9914583481916864,0.1717710357084244,-0.08813953759237703,0.20220923122567724,-0.013346757578259094,0.22098707477526885
73,1.2501568635707037,1.1967872828373398,0.13450014189299594,1.3337392700073958,0.9938683634116449,0.14730627331565815,-0.08358240643669212,0.20291891942569495,-0.01280613142266221,0.21983198932060496
74,1.2696524105151055,1.1994253637673806,0.10995698500064728,1.34857582325629,0.99588084453764,0.12217182931261213,-0.07892341274118464,0.2035445192297406,-0.012214844311964845,0.21865150081521775
75,1.2891227533368865,1.2015749341062059,0.08479659812857517,1.3632775200466682,0.9974949866040543,0.0963770991912814,-0.07415476670978172,0.20407994750215153,-0.011580501062706236,0.2174434694423505
76,1.3085716393542932,1.2032280977158625,0.05902629023455393,1.3778428902211026,0.998710143975583,0.06993537651704462,-0.06927125086680941,0.20451795374027948,-0.010909086282490696,0.2162061695749739
77,1.3280004790479147,1.2043762437760472,0.03265860032037371,1.3922704772547134,0.9995258306054791,0.0428641055705861,-0.06426999820679868,0.20485041317056818,-0.01020550525021239,0.21493830924957635
78,1.3474085050419522,1.2050103081837125,0.005711084711034983,1.4065588384008205,0.9999417202299663,0.015185091651111312,-0.05915033335886832,0.20506858795374616,-0.00947400694007633,0.2136390519294382
79,1.3667924596414733,1.2051210127940664,-0.021793692186967716,1.4207065448352156,0.99995764649874,-0.013075342784616575,-0.0539140851937423,0.2051633662953264,-0.00871834940235114,0.21230813707488896
80,1.3861480183174082,1.2046991169087986,-0.04982883969180022,1.4347121817990456,0.9995736030415051,-0.041886267855577024,-0.04856416348163739,0.2051255138672935,-0.007942571836223197,0.2109455827017148
81,1.4054684544476341,1.2037356044227496,-0.07836277259981494,1.4485743487402851,0.998789743470524,-0.07121213282096248,-0.04310589429265099,0.20494586095222567,-0.007150639778852469,0.20955203576549938
82,1.4247452069734627,1.2022219250163986,-0.10735961639262405,1.4622916594537918,0.9976063813191736,-0.10101283897581732,-0.03754645248032906,0.204615543697225,-0.006346777416806726,0.20812865828603974
83,1.443967956670709,1.2001502122794057,-0.13677946097370647,1.4758627422199255,0.9960239899165367,-0.13124390617594112,-0.03189478554921643,0.20412622236286893,-0.005535554797765352,0.20667712589516282
84,1.4631247189643837,1.1975134970115866,-0.1665786675058771,1.4892862399417186,0.994043202198076,-0.16185673736972372,-0.02616152097733493,0.20347029481351064,-0.004721930136153379,0.20519961665547815
85,1.4822019597560503,1.1943059121261252,-0.19671023268229806,1.5025608102805854,0.9916648104524687,-0.19279898196781758,-0.02035885052453512,0.20264110167365657,-0.00391125071448048,0.20369878930505478
86,1.5011847386007946,1.1905228842957023,-0.22712421082944106,1.515685125790554,0.9888897660047016,-0.22401499487154508,-0.014500387189759323,0.20163311829100072,-0.0031092159578959833,0.20217775061632884
87,1.5200568813165107,1.1861613066618037,-0.2577681905862869,1.5286578740510102,0.9857191788355535,-0.25544638373627454,-0.008600992734499435,0.20044212782625026,-0.0023218068500123756,0.2006400121376156
88,1.5388011818019416,1.1812196866148743,-0.2885878196080783,1.5414777577979386,0.9821543171376185,-0.28703263284555847,-0.0026765759959970215,0.19906536947725584,-0.0015551867625198112,0.1990894371634142
89,1.557399630586552,1.1756982628689003,-0.31952736790494773,1.5541434950536477,0.9781966068080447,-0.3187117881210078,0.0032561355329043806,0.19750165606085568,-0.0008155797839399237,0.19753017930375386
90,1.5758336655618026,1.169599086784954,-0.350530318149253,1.5666538192549668,0.9738476308781951,-0.3504211845928371,0.00917984630683577,0.1957514559067588,-0.00010913355641589684,0.19596661444737468
91,1.5940844385820365,1.1629260640907075,-0.38153996966067283,1.579007479379901,0.9691091288804564,-0.38209819537047346,0.015076959202135587,0.19381693521025112,0.0005582257098006305,0.1944032682056056
92,1.612133090293984,1.1556849547036212,-0.41250004186755457,1.591203240072732,0.9639829961524481,-0.41368097997668896,0.020929850221252044,0.1917019585511731,0.0011809381091343885,0.19284474106767172
93,1.6299610247479612,1.1478833301676534,-0.4433552628709375,1.6032398817675544,0.9584712830789142,-0.44510920994479974,0.026721142980406842,0.18941204708873927,0.0017539470738622276,0.19129563349659615
94,1.6475501751104575,1.1395304901086398,-0.4740519292845364,1.6151162008102287,0.9525761942715953,-0.4763247508234524,0.032433974300228874,0.18695429583704448,0.0022728215389160034,0.1897604730669188
95,1.6648832521374128,1.1306373409472505,-0.5045384247260091,1.6268310095787475,0.9463000876874145,-0.5072722820789922,0.03805224255866535,0.18433725325983608,0.002733857352983149,0.18824364552130549
96,1.6819439679311758,1.1212162417361853,-0.5347656860889506,1.6383831366019965,0.9396454736853249,-0.5378998396315425,0.04356083132917932,0.18157076805086036,0.0031341535425919442,0.18674933133775093
97,1.6987172287998753,1.1112808232905647,-0.5646876088978958,1.6497714266769001,0.9326150140222006,-0.5681592696408527,0.04894580212297517,0.17866580926836406,0.0034716607429569057,0.18528144908569522
98,1.7151892926421055,1.1008457876742428,-0.5942613854884663,1.660994740983941,0.9252115207881683,-0.5980065863693985,0.05419455165816456,0.17563426688607453,0.00374520088093222,0.18384360653467627
