timestep,px,py,theta,px_ref,py_ref,theta_ref,error_px,error_py,error_theta,error_norm
0,0.0,0.0,0.7853981633974483,0.0,0.0,0.7853981633974483,0.0,0.0,0.0,0.0
1,0.017436828022870193,0.017436828022870193,0.7850333930636102,0.01999966666833333,0.01999866669333308,0.7853231571470295,-0.0025628386454631356,-0.002561838670462887,-0.00028976408341929716,0.003635260997534867
2,0.03488001532312886,0.034867294448253,0.7846686227297721,0.03999733338666616,0.03998933418663416,0.7850980633706443,-0.005117318063537303,-0.005122039738381164,-0.0004294406408721363,0.007253044499311557
3,0.05232955957983093,0.05229139695689596,0.784303852395934,0.05999100040499132,0.0599640064794446,0.7847226568420766,-0.00766144082516039,-0.00767260952254864,-0.0004188044461426177,0.010850899021143235
4,0.06978545847118552,0.0697091332303934,0.783939082062096,0.07997866837326832,0.07991469396917268,0.7841965616812204,-0.010193209902082806,-0.010205560738779276,-0.0002574796191244788,0.01442640959681571
5,0.08724770967455618,0.0871205009511867,0.7835743117282579,0.09995833854135666,0.09983341664682815,0.7835192505983565,-0.01271062886680048,-0.012712915695641452,5.506112990139034e-05,0.017977245156087028
6,0.10734584934846556,0.10714546195980179,0.782515166062137,0.11992801295888919,0.11971220728891936,0.7826900438339384,-0.012582163610423636,-0.01256674532911757,-0.00017487777180136277,0.017783827246164903
7,0.12746518709613563,0.1271491248829692,0.7814560203960161,0.13988569467506554,0.1395431146442365,0.7817081077917023,-0.012420507578929901,-0.012393989761267293,-0.00025208739568616245,0.01754832011264091
8,0.14760570034790588,0.14713146728079113,0.7803968747298953,0.1598293879383454,0.15931820661424598,0.7805724533623122,-0.012223687590439514,-0.012186739333454849,-0.0001755786324169062,0.017261691161250738
9,0.16776736651036123,0.16709246673728698,0.7793377290637744,0.17975709839602208,0.17902957342582415,0.7792819339341677,-0.011989731885660854,-0.011937106688537175,5.579512960673938e-05,0.016918962730617954
10,0.18795016296635755,0.18703210086041838,0.7782785833976535,0.1996668332936563,0.19866933079506124,0.7778352430874435,-0.011716670327298756,-0.011637229934642862,0.0004433403102100941,0.01651974681225497
11,0.20771228220372434,0.20651480869090733,0.7764157688710221,0.21955660167434962,0.21822962308086932,0.7762309119668949,-0.01184431947062528,-0.011714814389961997,0.00018485690412728406,0.016660100599591148
12,0.22751065980322885,0.22596066957664687,0.7745529543443908,0.23942441457783872,0.23770262642713458,0.7744673063284713,-0.011913754774609875,-0.011741956850487706,8.564801591948168e-05,0.016727774481110323
13,0.24734522706297718,0.24536961603900326,0.7726901398177594,0.2592682852393897,0.2570805518921551,0.7725426232543283,-0.011923058176412538,-0.01171093585315186,0.00014751656343103825,0.016713081582139244
14,0.26721591515549453,0.2647415807274386,0.770827325291128,0.279086229288473,0.27635564856411376,0.7704548875304338,-0.011870314132978455,-0.01161406783667518,0.00037243776069417756,0.01661112998010887
15,0.28712265512796403,0.2840764964197446,0.7689645107644966,0.29887626494719843,0.29552020666133955,0.7682019476806334,-0.0117536098192344,-0.011443710241594962,0.0007625630838631325,0.01642216034306265
16,0.3067232446105444,0.3030432269009972,0.7662690654199324,0.31863641322849195,0.31456656061611776,0.765781471650788,-0.011913168617947556,-0.011523333715120543,0.0004875937691444232,0.016581572727380017
17,0.3263748866133268,0.32195705622791027,0.7635736200753683,0.33836469813399206,0.33348709214081446,0.7631909421364422,-0.01198981152066525,-0.01153003591290419,0.00038267793892610147,0.0166386222644448
18,0.34607743835885474,0.340817846983547,0.7608781747308042,0.35805914685164836,0.35227423327509,0.760427651547437,-0.011981708492793619,-0.011456386291542997,0.0004505231833672463,0.016583518818576726
19,0.36583075669979087,0.3596254621363183,0.7581827293862401,0.37771778995300115,0.3709204694129827,0.7574886966029721,-0.011887033253210277,-0.011295007276664382,0.0006940327832679616,0.016412203704776484
20,0.38563469811995726,0.3783797650409782,0.755487284041676,0.39733866159012243,0.38941834230865047,0.7543709725508718,-0.011703963470165168,-0.011038577267672267,0.001116311490804156,0.016126968107794876
21,0.403758989616849,0.39545101294728086,0.752989111277305,0.4169197996921991,0.40776045305957015,0.7510711670052485,-0.013160810075350138,-0.012309440112289294,0.0019179442720564932,0.018122023836983237
22,0.4219258714403367,0.41247693001962016,0.7504909385129339,0.43645924616173865,0.4259394650659996,0.7475857533974175,-0.014533374721401926,-0.013462535046379454,0.0029051851155164066,0.020022460668536662
23,0.44013523021338324,0.4294574100015647,0.7479927657485629,0.4559550470703768,0.44394810696551984,0.7439109840358401,-0.015819816856993574,-0.014490696963955163,0.004081781712722776,0.021838219841377078
24,0.45838695229385845,0.4463923469202496,0.7454945929841919,0.47540525285426916,0.46177917554148284,0.7400428827720981,-0.017018300560410704,-0.01538682862123325,0.0054517102120937855,0.0235817343132418
25,0.4766809237752487,0.46328163508703823,0.7429964202198208,0.4948079185090459,0.479425538604203,0.7359772372714972,-0.018126994733797197,-0.01614390351716477,0.007019182948323599,0.025268211019236667
26,0.48584708475067384,0.47170166375316436,0.7475255297677503,0.5141611037843102,0.49688013784373675,0.7317095908888981,-0.028314019033636395,-0.02517847409057239,0.015815938878852243,0.04105828971092609
27,0.49497501661244486,0.48016312046537757,0.7520546393156798,0.5334628733776623,0.5141359916531132,0.7272352341528829,-0.03848785676521743,-0.03397287118773562,0.024819405162796904,0.05702169734191924
28,0.5040645321211372,0.4886658316555236,0.7565837488636094,0.5527112971282275,0.5311861979208834,0.7225491958644261,-0.04864676500709031,-0.04252036626535982,0.03403455299918323,0.07302629725550672
29,0.5131154448253532,0.4972096229092033,0.7611128584115389,0.5719044502096711,0.5480239367918736,0.7176462338199793,-0.05878900538431786,-0.05081431388267027,0.04346662459155959,0.08903700973655541
30,0.5221275690655468,0.5057943189693506,0.7656419679594684,0.5910404133226791,0.5646424733950353,0.712520825173375,-0.06891284425713229,-0.058848154425684696,0.05312114278609337,0.10504256848448405
31,0.5004668739080234,0.48497301568538836,0.7994799619615347,0.610117272886887,0.5810351605373051,0.7071671564563529,-0.10965039897886364,-0.09606214485191672,0.09231280550518184,0.1725479635637933
32,0.4795229951121525,0.46343081695513416,0.833317955963601,0.6291331212322355,0.597195441362392,0.7015791132839158,-0.149610126120083,-0.13376462440725784,0.13173884267968528,0.24006517292407237
33,0.4593199113370888,0.44119238645458736,0.8671559499656674,0.6480860567897367,0.6131168519734339,0.6957502697783335,-0.18876614545264792,-0.17192446551884655,0.17140568018733382,0.3075233108456558
34,0.43988075310533165,0.4182831849759107,0.9009939439677337,0.6669741842816288,0.6287930240184685,0.6896738777545541,-0.22709343117629716,-0.21050983904255777,0.21132006621317956,0.3748893025967663
35,0.42122777632057645,0.39472944127735454,0.9348319379698,0.6857956149109028,0.6442176872376911,0.6833428557202919,-0.26456783859032634,-0.24948824596033659,0.25148908224950817,0.442139440198929
36,0.43122239233954407,0.40826696462354634,0.9948319379698001,0.7045484665501799,0.6593846719714731,0.6767497777563413,-0.2733260742106358,-0.25111770734792677,0.3180821602134588,0.488818480044625
37,0.44038725930847594,0.42237944495682134,1.0548319379698001,0.723230863929924,0.6742879116281452,0.6698868623569647,-0.28284360462144803,-0.2519084666713238,0.3849450756128354,0.540038046339814
38,0.4486893936031525,0.4370160925876297,1.1148319379698002,0.7418409388259654,0.6889214451105513,0.6627459613267954,-0.29315154522281284,-0.2519053525229216,0.45208597664300476,0.5947906063258562
39,0.45609891650534207,0.4521242313901831,1.1748319379698002,0.7603768302463229,0.7032794192004101,0.6553185488498808,-0.3042779137409808,-0.25115518781022705,0.5195133891199194,0.652348172856657
40,0.4625891617339213,0.4676494883796244,1.2348319379698003,0.778836684617301,0.7173560908995228,0.6475957108685986,-0.31624752288337976,-0.2497066025198984,0.5872362271012017,0.7121883665800491
41,0.47577635355777964,0.5054132007474619,1.2948319152570533,0.7972186559688459,0.731145829726896,0.6395681349355568,-0.32144230241106625,-0.22573262897943414,0.6552637803214966,0.7639705461380777
42,0.4866753529376057,0.5438997154314203,1.3548318925443064,0.8155209061191403,0.7446431199708592,0.6312261007306176,-0.3288455531815346,-0.20074340453943884,0.7236057918136888,0.8197820772983938
43,0.4952469352748268,0.582970522643919,1.4148318698315594,0.8337416048584215,0.757842562895277,0.6225594714682599,-0.3384946695835947,-0.17487204025135794,0.7922723983632995,0.8791213937827439
44,0.5014602521525752,0.6224850097768262,1.4748318471188124,0.8518789301319992,0.7707388788989693,0.6135576864580234,-0.35041867797942405,-0.1482538691221431,0.861274160660789,0.9415761463676102
45,0.5052929423565923,0.6623009674546221,1.5348318244060655,0.8699310682224605,0.7833269096274834,0.6042097551231719,-0.3646381258658682,-0.12102594217286133,0.9306220692828936,1.0068096529881785
46,0.5067312123513923,0.7022751013341955,1.4748318244060654,0.8878962139310396,0.795601620036366,0.5945042528303504,-0.3811650015796473,-0.09332651870217057,0.8803275715757151,0.963832574049391
47,0.5105639034597391,0.7420910589249404,1.4148318244060654,0.9057725707581367,0.8075581004051143,0.5844293189362826,-0.39520866729839754,-0.0654670414801739,0.8304025054697828,0.9219783865787933
48,0.5167772221324526,0.7816055457756046,1.3548318244060653,0.9235583510829657,0.8191915683009982,0.5739726575167142,-0.4067811289505131,-0.03758602252539356,0.7808591668893511,0.8812630903848548
49,0.5253488071318898,0.8206763524040507,1.2948318244060653,0.941251776342316,0.8304973704919704,0.5631215413080933,-0.41590296921042624,-0.009821018087919686,0.7317102830979719,0.8417075920921981
50,0.5362478100082537,0.8591628660978241,1.2348318244060652,0.958851077208406,0.8414709848078965,0.5518628194639037,-0.4226032672001523,0.017691881289927602,0.6829690049421615,0.8033387740072717
51,0.5494349970033624,0.8969265508590741,1.1748318244060652,0.976354493765815,0.852108021949363,0.540182929805001,-0.42691949676245255,0.044818528909711164,0.6346488946010641,0.7661906921047064
52,0.5648629160198176,0.9338315248112764,1.114831824406065,0.9937602756874735,0.8624042272433384,0.5280679163262988,-0.42889735966765585,0.07142729756793798,0.5867639080797663,0.7303058864563435
53,0.5824760432093135,0.9697449699007923,1.054831824406065,1.0110666824096939,0.8723554823449863,0.5155034528098956,-0.42859063920038043,0.09738948755580601,0.5393283715961694,0.6957368329369582
54,0.6022109903338625,1.004537636507166,0.994831824406065,1.0282719833062262,0.8819578068849474,0.5024748734859666,-0.42606099297236366,0.1225798296222187,0.49235695092009835,0.6625474711159531
55,0.6239967328950019,1.038084308602186,0.9348318244060649,1.0453744578613184,0.8912073600614354,0.4889672117755554,-0.42137772496631654,0.14687694854075062,0.4458646126305095,0.6308147730567074
56,0.647754882171153,1.0702642766408919,0.8748318244060649,1.0623723958417668,0.900100442176505,0.4749652482411506,-0.41461751367061384,0.17016383446438688,0.3998665761649143,0.6006302456052943
57,0.6733999194184493,1.1009617042950908,0.8148318244060648,1.0792640974679386,0.9086334961158833,0.4604535689580829,-0.40586417804948927,0.19232820817920748,0.3543782554479819,0.5721012310942594
58,0.7008395501961177,1.1300661139744717,0.7548318244060648,1.0960478735837471,0.916803108771767,0.44541663559766037,-0.39520832338762946,0.2132630052027047,0.3094151888084044,0.5453517097509556
59,0.7299750214646037,1.1574727612331792,0.6948318244060647,1.1127220458255676,0.9246060124080204,0.4298388685756445,-0.38274702436096386,0.2328667488251588,0.2649929558304202,0.520522308844986
60,0.760701476989874,1.1830830117367097,0.6348318244060647,1.1292849467900707,0.9320390859672264,0.4137047446598081,-0.36858346980019674,0.2510439257694833,0.22112707974625656,0.4977690350682872
61,0.7929083329839535,1.2068046949657618,0.5748318244060646,1.1457349202009626,0.9390993563190677,0.3969989104388761,-0.3528265872170091,0.2677053386466941,0.17783291396718853,0.47726019557177024
62,0.8264796811937092,1.2285524398516618,0.5148318244060646,1.1620703210746102,0.945783999449539,0.37970631302149005,-0.335590639880901,0.2827684404021229,0.13512551138457451,0.45917096194126245
63,0.8612947010182915,1.248247977997567,0.45483182440606457,1.178289515884539,0.9520903415905158,0.36181234924553096,-0.3169948148662475,0.2961576364070513,0.0930194751605336,0.4436751976541385
64,0.8972280959820417,1.2658204267347808,0.39483182440606457,1.1943908827247842,0.958015860289225,0.3433030345211741,-0.29716278674274255,0.30780456644555576,0.05152878988489046,0.43093455319392804
65,0.9341505446664999,1.2812065442238163,0.33483182440606457,1.210372811472079,0.963558185417193,0.3241651921901698,-0.27622226680557915,0.31764835880662334,0.010666632215894756,0.4210854991264637
66,0.9719284643545041,1.2943507128869187,0.305094039867317,1.2262337039468676,0.9687151001182652,0.30438666394296926,-0.2543052395923635,0.3256356127686535,0.0007073759243477196,0.4131709181053819
67,1.010080501936401,1.306365803987152,0.2753562553285694,1.2419719740731194,0.9734845416953194,0.283956541378582,-0.23189147213671846,0.33288126229183257,-0.008600286050012618,0.40578018009124145
68,1.0485729206847236,1.317241192931974,0.2456184707898218,1.2575860480369372,0.9778646024353163,0.26286541820488024,-0.20901312735221356,0.3393765904966578,-0.017246947415058445,0.39894913808382465
69,1.087371682882926,1.3269672629340212,0.2158806862510742,1.273074364443936,0.9818535303723597,0.24110566184802507,-0.18570268156100989,0.34511373256166156,-0.02522497559695086,0.3927152578337881
70,1.1264424799239374,1.33553541351495,0.1861429017123266,1.2884353744753823,0.9854497299884603,0.2186717023624417,-0.16199289455144483,0.3500856835264897,-0.0325288006501151,0.3871173033682426
71,1.1496992712642646,1.3399152027441739,0.16474495805314657,1.3036675420430732,0.9886517628517197,0.19556033550876473,-0.1539682707788086,0.3512634398924541,-0.03081537745561816,0.38476203048043667
72,1.1730444498225292,1.3437963797850578,0.14334701439396652,1.3187693439429462,0.9914583481916864,0.1717710357084244,-0.145724894120417,0.3523380315933714,-0.02842402131445787,0.3823424620169503
73,1.1964673269031487,1.3471771676231408,0.12194907073478647,1.3337392700073958,0.9938683634116449,0.14730627331565815,-0.13727194310424706,0.3533088042114959,-0.02535720258087168,0.379886410943719
74,1.2199571782359209,1.3500560183494212,0.10055112707560643,1.34857582325629,0.99588084453764,0.12217182931261213,-0.12861864502036924,0.3541751738117812,-0.0216207022370057,0.3774258395456019
75,1.243503248886179,1.3524316138690746,0.07915318341642638,1.3632775200466682,0.9974949866040543,0.0963770991912814,-0.11977427116048922,0.3549366272650203,-0.01722391577485502,0.37499673156030794
76,1.266261306694748,1.3542367580475625,0.051883850151823147,1.3778428902211026,0.998710143975583,0.06993537651704462,-0.11158158352635472,0.3555266140719795,-0.018051526365221476,0.37306230136513313
77,1.289060122371247,1.3554207109487855,0.02461451688721991,1.3922704772547134,0.9995258306054791,0.0428641055705861,-0.10321035488346642,0.3558948803433064,-0.018249588683366187,0.3710075345553773
78,1.311882743389876,1.3559825922203435,-0.0026548163773833233,1.4065588384008205,0.9999417202299663,0.015185091651111312,-0.09467609501094443,0.35604087199037715,-0.017839908028494635,0.36884539825332596
79,1.3347121995238858,1.3559219840639223,-0.029924149641986558,1.4207065448352156,0.99995764649874,-0.013075342784616575,-0.08599434531132988,0.3559643375651823,-0.01684880685736998,0.3665917611407276
80,1.3575315154641368,1.3552389315459565,-0.05719348290658979,1.4347121817990456,0.9995736030415051,-0.041886267855577024,-0.07718066633490883,0.35566532850445143,-0.01530721505101277,0.36426500242089943
81,1.3808404818313633,1.353904355083793,-0.08657240988252937,1.4485743487402851,0.998789743470524,-0.07121213282096248,-0.0677338669089218,0.35511461161326907,-0.015360277061566896,0.36184278660640257
82,1.4041001869044376,1.3518856606157115,-0.11595133685846895,1.4622916594537918,0.9976063813191736,-0.10101283897581732,-0.058191472549354195,0.3542792792965379,-0.014938497882651627,0.3593371869641751
83,1.427290556179267,1.3491845903946866,-0.14533026383440853,1.4758627422199255,0.9960239899165367,-0.13124390617594112,-0.048572186040658494,0.3531606004781499,-0.014086357658467413,0.35676335638478623
84,1.4503915749926626,1.345803475604413,-0.1747091908103481,1.4892862399417186,0.994043202198076,-0.16185673736972372,-0.038894664949056024,0.3517602734063371,-0.012852453440624384,0.3541373610166594
85,1.4733833057961792,1.3417452343473553,-0.2040881177862877,1.5025608102805854,0.9916648104524687,-0.19279898196781758,-0.029177504484406258,0.3500804238948866,-0.011289135818470103,0.3514755675006285
86,1.4966731984857038,1.3369249323997683,-0.23516240136867542,1.515685125790554,0.9888897660047016,-0.22401499487154508,-0.01901192730485013,0.3480351663950667,-0.011147406497130335,0.3487322685085206
87,1.5198020842657964,1.3313833572692748,-0.2662366849510631,1.5286578740510102,0.9857191788355535,-0.25544638373627454,-0.00885578978521373,0.3456641784337213,-0.010790301214788578,0.34594592043451716
88,1.5427476314246795,1.3251258595317645,-0.29731096853345085,1.5414777577979386,0.9821543171376185,-0.28703263284555847,0.0012698736267409139,0.34297154239414607,-0.010278335687892382,0.3431278707067679
89,1.565487685270138,1.3181584810103175,-0.3283852521158386,1.5541434950536477,0.9781966068080447,-0.3187117881210078,0.011344190216490357,0.33996187420227286,-0.009673463994830767,0.34028861642501235
90,1.5880002895206151,1.3104879489416223,-0.3594595356982263,1.5666538192549668,0.9738476308781951,-0.3504211845928371,0.021346470265648287,0.3366403180634272,-0.009038351105389197,0.3374375013678117
91,1.6104940299013117,1.302035117562239,-0.3906264879301909,1.579007479379901,0.9691091288804564,-0.38209819537047346,0.031486550521410805,0.3329259886817827,-0.008528292559717432,0.3345203261051023
92,1.6327134398513827,1.2928854434634993,-0.4217934401621555,1.591203240072732,0.9639829961524481,-0.41368097997668896,0.04151019977865067,0.3289024473110512,-0.008112460185466519,0.3316108088454342
93,1.6546369376516654,1.2830478137264403,-0.45296039239412006,1.6032398817675544,0.9584712830789142,-0.44510920994479974,0.05139705588411103,0.3245765306475261,-0.007851182449320315,0.3287145002378073
94,1.6762432290025515,1.2725317836436054,-0.48412734462608464,1.6151162008102287,0.9525761942715953,-0.4763247508234524,0.06112702819232285,0.3199555893720101,-0.007802593802632263,0.32583580714228483
95,1.697511327707147,1.2613475674379857,-0.5152942968580492,1.6268310095787475,0.9463000876874145,-0.5072722820789922,0.07068031812839948,0.31504747975057124,-0.008022014779056952,0.3229782881077825
96,1.7183597089908487,1.2495404991995178,-0.5451633772402067,1.6383831366019965,0.9396454736853249,-0.5378998396315425,0.07997657238885214,0.3098950255141929,-0.007263537608664161,0.320131126178171
97,1.738846177066183,1.2371160680923503,-0.5750324576223642,1.6497714266769001,0.9326150140222006,-0.5681592696408527,0.08907475038928281,0.3045010540701497,-0.006873187981511486,0.31733648356243954
98,1.7589524560443943,1.2240853578972466,-0.6049015380045217,1.660994740983941,0.9252115207881683,-0.5980065863693985,0.09795771506045337,0.29887383710907833,-0.006894951635123214,0.3145931099153628
99,1.7786606092017614,1.2104599932538984,-0.6347706183866793,1.672051957201041,0.9174379552818098,-0.6274022311885141,0.10660865200072034,0.2930220379720886,-0.007368387198165127,0.31190000408565066
